#Run, E[Ts], E[Tq], E[s], E[Ns], E[Nq], ρ, λ
0,91.8524162797021,0.009007812540739964,1.3757948315325346,66.32888568837964,0.009007812540739964,0.9934952373327045,0.7220759198649905
1,94.55463608377306,0.00878906116212944,1.378469381979172,68.1593516703809,0.00878906116212944,0.9936644385149839,0.7207280309366529
2,94.56867820539364,0.006247346128540189,1.3778952023136763,68.32293271514989,0.006247346128540189,0.9954864864637163,0.7224613397920877
3,143.43328049442928,0.004659499446890403,1.3843574794528548,103.26243859743478,0.004659499446890403,0.9966454697691448,0.7199368453131584
4,201.51590848973717,0.0037454118417946896,1.387163610263697,144.88072568879593,0.0037454118417946896,0.9973072201112586,0.7189502664215947
5,265.25403873106484,0.00312233782813288,1.3821598753802447,191.4801447690029,0.00312233782813288,0.9977460637274037,0.7218865971365768
6,293.7164032045765,0.0026841291241050764,1.3840343543464977,211.80679907682435,0.0026841291241050764,0.9980644022877755,0.7211299468433199
7,320.35486816695095,0.002302454100444415,1.3865195663279373,230.66661059142592,0.002302454100444415,0.998342153230164,0.7200266245790774
8,381.4386107459863,0.0020853530416989497,1.3883379033451249,274.33273213309076,0.0020853530416989497,0.9985002027029396,0.7192188453517663
9,464.8533628294628,0.0018216473002450593,1.389502783682726,334.1085317541961,0.0018216473002450593,0.998690709902249,0.7187076505088267
10,529.0101896376925,0.0016874437011830143,1.3891469824966634,380.35454089517975,0.0016874437011830143,0.9987867400537417,0.7189887117475872
11,590.9312141249738,0.0015465611014176314,1.3883894647505863,425.1499372158114,0.0015465611014176314,0.9988873149032383,0.719444777340891
12,654.8158984104255,0.0014469723267919476,1.3889531163108175,470.9550177402895,0.0014469723267919476,0.9989593122593873,0.719231258111076
13,726.6410398145256,0.0013327578452054418,1.38885817655894,522.6915395804776,0.0013327578452054418,0.9990413130943221,0.7193290584398283
14,800.194315885227,0.0012432116537308435,1.388869357086722,575.6327464978347,0.0012432116537308435,0.9991056755534141,0.7193586403735047
15,868.3528548827202,0.0011729418081606192,1.388626840175791,624.8042819830772,0.0011729418081606192,0.9991560354064193,0.7195275736653526
16,931.5642966780098,0.0010891055504134,1.388613090706437,670.3337586910126,0.0010891055504134,0.9992163029220599,0.7195688939414686
17,997.4409322255539,0.001027446771824116,1.3888862386843073,717.6279668749511,0.001027446771824116,0.9992607837575993,0.719464441515125
18,1066.7450951248118,9.844382814101539E-4,1.389704557167993,767.0622969013224,9.844382814101539E-4,0.999292121901711,0.7190666202728061
19,1133.932274579808,9.089836706438853E-4,1.3889781230219773,815.8448762634515,9.089836706438853E-4,0.9993460017966446,0.7194678053128332
20,1199.7937051899971,8.82159382290677E-4,1.3888165662578955,863.3480646226351,8.82159382290677E-4,0.9993652153765311,0.7195786182827394
21,1276.9988019618238,8.568179783518457E-4,1.3899733714592237,918.1557976378247,8.568179783518457E-4,0.9993839521281183,0.718992944148564
22,1361.8344524957024,8.132109356891465E-4,1.3909090131585777,978.5246142648795,8.132109356891465E-4,0.9994156801396066,0.7185356856347357
23,1452.4908699384753,7.715703402177048E-4,1.391862279057271,1042.98116160747,7.715703402177048E-4,0.9994459632439988,0.7180664951827818
24,1547.1285579254409,7.342184761667824E-4,1.392545646269869,1110.4219597743545,7.342184761667824E-4,0.9994730287182464,0.7177295892778857
25,1650.2411000554525,7.139617010338613E-4,1.3932028553610358,1183.8877900430475,7.139617010338613E-4,0.9994878017882454,0.7173976799207001
26,1754.7248225495691,6.827751974026965E-4,1.3932785678263766,1258.8045079809904,6.827751974026965E-4,0.9995101907231361,0.7173768187508829
27,1863.3820294058628,6.545713290001656E-4,1.3935319325275617,1336.5371306144655,6.545713290001656E-4,0.9995304994509777,0.7172584793886729
28,1970.111515418209,6.516075723837201E-4,1.3934312655502192,1413.1954085379161,6.516075723837201E-4,0.9995325905045199,0.717319030612309
29,2083.1534668949935,6.276614822126908E-4,1.393649038999857,1494.0746454234986,6.276614822126908E-4,0.9995498300430642,0.7172187178534863
30,2196.0922149350695,5.88442539132379E-4,1.3941025191901573,1574.6084797252254,5.88442539132379E-4,0.9995780839230486,0.7170061942935398
31,2309.699463344259,5.850765305048097E-4,1.3940415636098775,1656.141792266184,5.850765305048097E-4,0.9995804780192311,0.7170372446123392
32,2420.514865519349,5.602803449555994E-4,1.3944575987140537,1735.11386617645,5.602803449555994E-4,0.9995983704916144,0.7168300052605441
33,2533.0823287536086,5.501955731418132E-4,1.3948504112600602,1815.3083181627126,5.501955731418132E-4,0.9996057078014389,0.7166396411218544
34,2644.7782227162215,5.297982174536126E-4,1.3951399584121236,1894.9885602616584,5.297982174536126E-4,0.9996203985828761,0.7164978972354503
35,2751.412972842418,5.099692369952497E-4,1.3952838624880295,1971.2173175618777,5.099692369952497E-4,0.9996346385652349,0.7164349062549521
36,2856.682825174333,4.9249085736794E-4,1.395600558886889,2046.1980135905944,4.9249085736794E-4,0.9996472363661877,0.7162840174367571
37,2962.0259874948147,4.8767265759336266E-4,1.3951672394493553,2122.3197523972426,4.8767265759336266E-4,0.9996505779090784,0.7165095734620739
38,3064.9698462404044,4.833958197883634E-4,1.3951029267399657,2196.187936707995,4.833958197883634E-4,0.9996536252813787,0.7165448633156436
39,3161.518726322432,4.565704019421887E-4,1.3942776968587318,2266.753460163998,4.565704019421887E-4,0.9996726470320121,0.7169770042146412
40,3259.03142240159,4.4893489185613556E-4,1.394576682196014,2336.1803414082465,4.4893489185613556E-4,0.9996781887828029,0.7168332043333548
41,3356.2122174199953,4.350428312460228E-4,1.3946290693346066,2405.7763282358674,4.350428312460228E-4,0.9996881556715193,0.7168068222359325
42,3452.5786824806387,4.3552178751399143E-4,1.3950170332952494,2474.1641483295493,4.3552178751399143E-4,0.9996878992510869,0.7166138198594166
43,3544.310469646839,4.169985292688078E-4,1.3945876366880332,2540.7159088720423,4.169985292688078E-4,0.999701077316346,0.7168461179904553
44,3637.9721883420043,4.1657069359755846E-4,1.3945919898893229,2607.8493646102324,4.1657069359755846E-4,0.9997013848478296,0.7168443932212685
45,3728.7244834213834,4.094977832217107E-4,1.394357878170543,2673.3665754632525,4.094977832217107E-4,0.9997064042432583,0.7169650236109688
46,3826.0467654742247,4.006983529706847E-4,1.3949297765393645,2742.0362661895174,4.006983529706847E-4,0.9997128290679657,0.7166786772848799
47,3921.5920562956017,3.9105875206554255E-4,1.3949115071311076,2810.5675085700027,3.9105875206554255E-4,0.9997197319336842,0.716688290150756
48,4018.846002899675,3.7636961379762914E-4,1.3952725573985534,2879.5536793789333,3.7636961379762914E-4,0.9997303264406162,0.7165130225294944
49,4116.219231760906,3.739745437005939E-4,1.395060139294084,2949.7768407282933,3.739745437005939E-4,0.9997320012890669,0.7166223746416589
50,4212.113965897991,3.585504061657682E-4,1.3951135148233917,3018.4151090155224,3.585504061657682E-4,0.9997430615666916,0.7165989082659049
51,4308.842945980591,3.588317912982665E-4,1.394946332264745,3088.1007660396813,3.588317912982665E-4,0.9997428291670224,0.7166881088141499
52,4406.071398513075,3.527668878080966E-4,1.3949375268641164,3157.816992093584,3.527668878080966E-4,0.9997471731227632,0.7166950007901709
53,4503.21272124048,3.4188559413116337E-4,1.3946684838081604,3228.0854823824243,3.4188559413116337E-4,0.9997549225427782,0.7168428636432164
54,4603.486447555767,3.4019341952880436E-4,1.3950290796485967,3299.116969541448,3.4019341952880436E-4,0.9997561982866509,0.7166562703556115
55,4712.628114064935,3.3761152892190994E-4,1.3957262530787398,3375.653674260335,3.3761152892190994E-4,0.9997581689939258,0.716301880239617
56,4821.6035901348105,3.309937300096687E-4,1.3956559574462588,3453.9030512227164,3.309937300096687E-4,0.9997628962579265,0.7163381032866765
57,4933.3052648380735,3.22841747169084E-4,1.3958694025705844,3533.3997054601336,3.22841747169084E-4,0.9997687698463568,0.7162374390803579
58,5045.0166312723495,3.070029105018867E-4,1.3959291308905313,3613.2975713342166,3.070029105018867E-4,0.9997801210675832,0.7162056186785432
59,5157.883075882192,3.103669163252515E-4,1.396390758039663,3692.9039317876423,3.103669163252515E-4,0.9997777857332685,0.7159740616309423
60,5273.837032758259,3.0558906836818735E-4,1.3963309517681994,3776.0984182751636,3.0558906836818735E-4,0.9997811964248157,0.7160045028853111
61,5388.739069675196,3.040480467318385E-4,1.396312562002387,3858.4240162270985,3.040480467318385E-4,0.9997822966986472,0.7160154449157702
62,5507.132916639863,2.98178456400966E-4,1.3965926344561408,3942.421888477736,2.98178456400966E-4,0.9997865413290397,0.7158757032742971
63,5621.07497411927,2.83301421058077E-4,1.396472764707876,4024.378422567302,2.83301421058077E-4,0.9997971718699291,0.7159400315522739
64,5735.758542296097,2.8227155031867307E-4,1.3965385624103086,4106.295097297907,2.8227155031867307E-4,0.9997979185709034,0.7159113568885016
65,5851.644561028208,2.8522512494675797E-4,1.3968066415896083,4188.446515538823,2.8522512494675797E-4,0.9997958436866307,0.7157728354227156
66,5961.191849063687,2.808233406919192E-4,1.396709234292061,4267.168414330113,2.808233406919192E-4,0.9997989797141665,0.7158240995231989
67,6068.4718814086345,2.703294146371509E-4,1.396345715843247,4345.125420843991,2.703294146371509E-4,0.9998064397043446,0.7160160313246502
68,6177.934479770265,2.7021473843695054E-4,1.3967557643421251,4422.204434477451,2.7021473843695054E-4,0.999806578587311,0.7158061692136687
69,6288.616745501112,2.632122522877893E-4,1.397218207219328,4499.964477437433,2.632122522877893E-4,0.9998116524136776,0.7155737216955587
70,6396.810845464122,2.6101998756408767E-4,1.39726068654961,4577.2533017138985,2.6101998756408767E-4,0.9998132265235359,0.7155512674676764
71,6502.059993514699,2.5056469036827963E-4,1.3969507523161928,4653.631451940699,2.5056469036827963E-4,0.9998206667233144,0.7157164682575178
72,6608.356456905803,2.538959091962284E-4,1.396760160123593,4730.343569822105,2.538959091962284E-4,0.9998182581570315,0.7158119076659167
73,6714.172053635153,2.545063855583647E-4,1.3969689472529867,4805.367413602032,2.545063855583647E-4,0.9998178484730588,0.7157057238733255
74,6821.002585562898,2.5091102221496265E-4,1.3972477711635618,4880.865128899024,2.5091102221496265E-4,0.9998204570598789,0.715562876939773
75,6929.859845620851,2.4605824543085983E-4,1.3974222780900527,4958.15757248254,2.4605824543085983E-4,0.9998239509052084,0.7154779248256914
76,7035.757217169024,2.446576351228744E-4,1.3971825823387811,5034.793237106508,2.446576351228744E-4,0.9998249228094856,0.7156007845055524
77,7143.168479817624,2.3780555208219992E-4,1.3972582805711098,5111.404998373599,2.3780555208219992E-4,0.9998298345487736,0.7155634298151905
78,7251.304470859122,2.3719613021006553E-4,1.3971058325092445,5189.351735571667,2.3719613021006553E-4,0.9998302520387989,0.7156432599855705
79,7357.472858556809,2.366332437549861E-4,1.3968878686973942,5266.154053081467,2.366332437549861E-4,0.9998306283774809,0.7157571763404398
80,7464.622197686554,2.3277362164741437E-4,1.3969188688086855,5342.743028739464,2.3277362164741437E-4,0.9998333941609642,0.7157423903293971
81,7570.7028871947805,2.2792186485294974E-4,1.3969381857517782,5418.613324445248,2.2792186485294974E-4,0.9998368684556471,0.7157376400178572
82,7673.456586216557,2.216773605838667E-4,1.396670315215895,5493.235430509808,2.216773605838667E-4,0.9998413067282497,0.7158745749598718
83,7776.523162989358,2.248822437847499E-4,1.3964504761501912,5567.881695809046,2.248822437847499E-4,0.9998389874623096,0.7159879332052407
84,7884.09169361052,2.155594477444647E-4,1.3966456656945283,5644.1481456452575,2.155594477444647E-4,0.9998456829899316,0.7158905886063622
85,7996.676627221254,2.184336206441078E-4,1.397028756515283,5723.165295070889,2.184336206441078E-4,0.9998436685919384,0.71569262794012
86,8109.384213154398,2.1320090160930193E-4,1.3971193515793632,5803.474769664627,2.1320090160930193E-4,0.9998474229336239,0.7156479149890992
87,8223.334157066976,2.0411481414795544E-4,1.3972395556575896,5884.555013434646,2.0411481414795544E-4,0.9998539370004953,0.7155907370298982
88,8337.14136050659,2.074458735878646E-4,1.3971912150827603,5966.186739295168,2.074458735878646E-4,0.9998515485384494,0.7156147855934534
89,8450.102134111594,2.0983348249332658E-4,1.3970318113818758,6047.702747173591,2.0983348249332658E-4,0.9998498230543982,0.7156957350825046
90,8566.281224226532,2.0170470764186747E-4,1.3973212173909944,6129.617689105732,2.0170470764186747E-4,0.999855669839505,0.7155518841976332
91,8682.980689087562,2.004769549589062E-4,1.3975838284937108,6211.960354140938,2.004769549589062E-4,0.9998565751853291,0.7154177975169947
92,8801.981168599716,2.017933238874539E-4,1.3977806596485685,6296.202895740593,2.017933238874539E-4,0.9998556538936104,0.7153163756477245
93,8921.499794436262,1.9819640511457073E-4,1.39779832415705,6381.6323311368005,1.9819640511457073E-4,0.9998582282557936,0.715308315552663
94,9039.158649287421,1.9920186461087788E-4,1.3977120511395138,6466.1892018267845,1.9920186461087788E-4,0.9998575003497663,0.7153537885311985
95,9155.437135455919,1.900870290944723E-4,1.3976363084840107,6549.766955928172,1.900870290944723E-4,0.9998640124197793,0.7153928201640666
96,9268.051443606393,1.9108482858467798E-4,1.3974666284484754,6631.131038425551,1.9108482858467798E-4,0.9998632820992083,0.7154814165850659
97,9381.068990766902,1.8889312034831991E-4,1.3974735544159405,6711.970409810508,1.8889312034831991E-4,0.9998648506864577,0.7154797715667088
98,9494.475675166166,1.8639850465920435E-4,1.3974664567050001,6793.157284926748,1.8639850465920435E-4,0.9998666346196308,0.7154854365325596
99,9607.072937788009,1.8482375060191865E-4,1.397453825441777,6873.788831855376,1.8482375060191865E-4,0.9998677599888149,0.7154912416599827
100,9723.154998051423,1.8375928240406942E-4,1.397735172352111,6955.449831903082,1.8375928240406942E-4,0.999868547969238,0.715349985210246
101,9836.691317853476,1.8407420378423214E-4,1.3976088676126028,7037.302180873093,1.8407420378423214E-4,0.9998683108218124,0.7154148117656581
102,9953.34326693373,1.808589137078709E-4,1.3979581649929427,7118.993960359041,1.808589137078709E-4,0.9998706431115824,0.7152353577031635
103,10072.284070954154,1.7808745639952706E-4,1.3982573856071872,7202.537596453096,1.7808745639952706E-4,0.9998726523605631,0.7150904495075349
104,10190.201520009809,1.741200889002496E-4,1.3982920508701506,7286.69862140569,1.741200889002496E-4,0.9998754920980456,0.7150680293327496
105,10306.419670361343,1.782487975934501E-4,1.3983094966815168,7369.68893984155,1.782487975934501E-4,0.9998725417522107,0.7150601954485538
106,10419.28807227961,1.755385015206908E-4,1.3982786811286034,7450.575017775983,1.755385015206908E-4,0.9998744767622303,0.7150748585645492
107,10535.393058040761,1.7085515921618858E-4,1.3984071144847987,7532.932225954032,1.7085515921618858E-4,0.9998778365147138,0.7150131600245062
108,10653.829275756358,1.708601438657668E-4,1.3986452704475123,7616.318573086682,1.708601438657668E-4,0.9998778537506616,0.714890713866008
109,10773.061738053719,1.698606588431002E-4,1.3987875137823678,7700.779119418724,1.698606588431002E-4,0.9998785805329409,0.7148174647798714
110,10891.477009246373,1.6877906346819785E-4,1.3988916095129302,7784.851246005827,1.6877906346819785E-4,0.9998793625601538,0.714765492379494
111,11005.450640824813,1.667612598874727E-4,1.398676893384313,7867.534448389858,1.667612598874727E-4,0.999880786348543,0.7148751544502775
112,11116.954075676233,1.6678366580045204E-4,1.3985084022168277,7948.202833569915,1.6678366580045204E-4,0.999880755970018,0.7149616304944425
113,11229.884572077195,1.6558686623730043E-4,1.3985253329401568,8028.853560893659,1.6558686623730043E-4,0.9998816129683173,0.7149541485764166
114,11344.656237419227,1.6034980179841714E-4,1.398703331623834,8109.908340645086,1.6034980179841714E-4,0.999885371388272,0.7148650605088899
115,11457.046572086443,1.5979805610608116E-4,1.3986289404650987,8190.691171991276,1.5979805610608116E-4,0.9998857596921498,0.7149045839015483
116,11571.049427903225,1.589044252392384E-4,1.3986302428326185,8272.189879787633,1.589044252392384E-4,0.9998863985858406,0.7149029964238311
117,11682.77967281661,1.5858448450183522E-4,1.398544873726978,8352.57795655654,1.5858448450183522E-4,0.9998866203671902,0.7149477845637886
118,11797.135934615664,1.5723382213043245E-4,1.3987062815205815,8433.371665802182,1.5723382213043245E-4,0.9998875988826602,0.7148655277328901
119,11911.745165851997,1.5429979299916166E-4,1.3986128776447,8515.888389426083,1.5429979299916166E-4,0.9998896887234072,0.7149147220884353
120,12024.422139253045,1.524358051168522E-4,1.398560288993983,8596.777541278278,1.524358051168522E-4,0.9998910170741896,0.7149417946473245
121,12135.873652505463,1.535991788081291E-4,1.3984391722458966,8677.20318627345,1.535991788081291E-4,0.9998901759097099,0.7150038844771331
122,12247.107100672329,1.5050399052493678E-4,1.3983093076445012,8757.568146597989,1.5050399052493678E-4,0.999892378751772,0.7150733260728964
123,12354.392266228886,1.472457216378158E-4,1.3980181536484504,8836.14504535363,1.472457216378158E-4,0.9998946864786497,0.7152235061753188
124,12462.021293479233,1.511996682158796E-4,1.3977837824191794,8914.592919672812,1.511996682158796E-4,0.9998918407006382,0.7153403416152713
125,12567.511307877436,1.4923128889116096E-4,1.3975265774018775,8991.721277375244,1.4923128889116096E-4,0.9998932289677168,0.7154738198608988
126,12677.098928072504,1.4415780638888786E-4,1.3976390943270167,9069.431121544581,1.4415780638888786E-4,0.9998968668381389,0.7154177259950703
127,12787.210319529622,1.463480536524705E-4,1.3977872059762741,9147.223258692793,1.463480536524705E-4,0.999895311151785,0.7153427803414957
128,12899.943342606191,1.45952194448663E-4,1.397962174583192,9226.713653641353,1.45952194448663E-4,0.9998956073627975,0.7152522053669671
129,13012.49550321608,1.4522524910356288E-4,1.3981638462118429,9305.879342984372,1.4522524910356288E-4,0.9998961422391748,0.7151498617644697
130,13122.828406231714,1.4310200038247946E-4,1.3981562510459604,9384.849086600982,1.4310200038247946E-4,0.9998976599681101,0.7151541495483175
131,13234.939022987359,1.405443445083019E-4,1.39817104787843,9464.942646972822,1.405443445083019E-4,0.9998994899668358,0.7151510589153846
132,13344.85718214286,1.4104232145890617E-4,1.39801367152601,9544.621242537763,1.4104232145890617E-4,0.9998991225219483,0.7152276500149353
133,13454.19782415549,1.4072282483201337E-4,1.3980232549768592,9622.761019282794,1.4072282483201337E-4,0.9998993517018989,0.7152238749866623
134,13563.09125398714,1.4057040457755553E-4,1.397939518738934,9701.226245412112,1.4057040457755553E-4,0.9998994546838417,0.7152666795551464
135,13671.968521873454,1.3714630155726363E-4,1.3979322894165067,9779.177036976978,1.3714630155726363E-4,0.9999019030828845,0.7152717507637653
136,13780.416267568246,1.3784571761282628E-4,1.3979239552103546,9856.800506545173,1.3784571761282628E-4,0.9999014022716869,0.7152757944620064
137,13888.80996598632,1.3646835454926424E-4,1.3979405782497125,9934.223582112547,1.3646835454926424E-4,0.9999023885308176,0.7152686017820298
138,13998.724233241377,1.3459138216560088E-4,1.3980217589048831,10012.273827864365,1.3459138216560088E-4,0.9999037365297966,0.715227062212099
139,14106.13289756589,1.254369025283629E-4,1.3980204137608783,10089.171234083104,1.254369025283629E-4,0.9999102833924881,0.7152303121162255
140,14215.380231482266,1.323751915556725E-4,1.3980847146840893,10166.790503716815,1.323751915556725E-4,0.99990532572337,0.715196191256814
141,14322.613672112357,1.3087052580907393E-4,1.3980317076629978,10243.882861366528,1.3087052580907393E-4,0.9999063982058664,0.7152245816606445
142,14430.89373030704,1.3156431483134042E-4,1.3980751989769529,10321.001234704752,1.3156431483134042E-4,0.9999059049646408,0.7152014774099938
