#Run, E[Ts], E[Tq], E[s], E[Ns], E[Nq], ρ, λ
0,139.60465479817864,0.022530672712955772,1.4186434560488235,96.86869338830242,0.022530672712955772,0.9843664465914931,0.6938810492314169
1,283.0048327985105,0.010371328381475335,1.4031587185583307,200.21140223456604,0.010371328381475335,0.9926628171760986,0.7072630173703953
2,426.551909709402,0.0073836774930124485,1.4114191757428438,300.64212849344597,0.0073836774930124485,0.9947958396924755,0.7048267923922571
3,605.899641968192,0.005491856754627864,1.4038621995266725,429.91300820952637,0.005491856754627864,0.9961032809817012,0.709539243398935
4,800.239850911259,0.004409619798400368,1.4058006958520328,567.4613509986723,0.004409619798400368,0.99687307648408,0.7091175093928233
5,924.0607725282212,0.0036727210089559027,1.4037482684462526,656.5631601713651,0.0036727210089559027,0.9973904602556926,0.7105132101501244
6,1030.0163668685711,0.0031155678848972653,1.4088381442832927,729.4972618379129,0.0031155678848972653,0.9977934348286014,0.7082109273591236
7,1161.850591241391,0.002770750989832639,1.407861765104295,823.6380332834067,0.002770750989832639,0.998035809498065,0.7089033485468269
8,1287.026739353702,0.002445287494173668,1.4080927085400468,912.4367744592665,0.002445287494173668,0.9982664150125352,0.708960353406789
9,1396.5203017630654,0.002224990109661087,1.406240885596872,991.5187338582303,0.002224990109661087,0.9984202740385564,0.710007137710678
10,1492.9028082611342,0.001974183999582609,1.403936811565468,1061.8757609624645,0.001974183999582609,0.9985957973116292,0.7112875240568145
11,1586.1778109468173,0.0018471749894097501,1.4046895314777654,1127.7187460900684,0.0018471749894097501,0.9986867210923707,0.7109723234773835
12,1660.7632659712278,0.0017043662136517902,1.4020125466247246,1183.118370080113,0.0017043662136517902,0.9987858191362776,0.7124045171776698
13,1748.7488705388812,0.0015658691609887318,1.4036520596348725,1244.468089043949,0.0015658691609887318,0.9988856752188392,0.7116345561712967
14,1835.808457905895,0.001473507154141735,1.4028732483495452,1307.233025398673,0.001473507154141735,0.9989507526197736,0.7120723759049254
15,1929.157534593394,0.001388926441290513,1.4018672619687613,1374.7721553105785,0.001388926441290513,0.9990102117825939,0.7126370040792275
16,2019.315084008954,0.0012972480484036617,1.4012622461866948,1439.7357775615858,0.0012972480484036617,0.9990750851898007,0.7129866243702974
17,2115.485865104783,0.0012302701849371193,1.4019069943812525,1507.6827610011705,0.0012302701849371193,0.9991232004052594,0.7126891547762872
18,2214.8201171934506,0.0011382773076181894,1.400505298733353,1580.1592894602684,0.0011382773076181894,0.9991878981739185,0.7134464627002775
19,2314.1702809917947,0.0010873245375162017,1.4010938711141177,1650.407442467757,0.0010873245375162017,0.9992245477682284,0.7131748940018663
20,2415.295518362704,0.001019609989502074,1.4012006653771332,1722.4793855809723,0.001019609989502074,0.9992728603291409,0.7131611476322052
21,2511.444639072127,9.82119957980381E-4,1.4007498021142093,1791.6725727123637,9.82119957980381E-4,0.9992993525063419,0.7134065145007342
22,2611.595333055713,9.599121987475427E-4,1.4008300551708364,1863.0432474533202,9.599121987475427E-4,0.9993152239486,0.7133740603208816
23,2709.988788366856,9.044856782838435E-4,1.4012540235540412,1932.7264146837165,9.044856782838435E-4,0.99935493336001,0.7131788298333123
24,2814.0865279860923,8.772550345654933E-4,1.402008617106759,2005.9269138484888,8.772550345654933E-4,0.9993746782600166,0.7128163584579964
25,2911.291521640281,8.408075796565906E-4,1.4019555879054555,2075.348590151962,8.408075796565906E-4,0.9994006203734465,0.7128583798104556
26,3007.2858426533758,8.048578672508359E-4,1.402165490146367,2143.513472619869,8.048578672508359E-4,0.9994263186899207,0.7127680712233244
27,3106.738197927606,7.915222549403063E-4,1.4027871832392123,2213.4406754438673,7.915222549403063E-4,0.999436068492745,0.7124649546821469
28,3206.5723581743605,7.659183932312453E-4,1.4027193950329224,2284.720992445981,7.659183932312453E-4,0.9994542740234584,0.712512839850734
29,3316.0425837285393,7.334914876999157E-4,1.403273263328058,2361.842329001964,7.334914876999157E-4,0.9994775726789177,0.7122440348870779
30,3417.3516421485697,6.956378054148087E-4,1.4028078789562637,2434.872161940476,6.956378054148087E-4,0.9995043562077993,0.7124934687780995
31,3522.23191976961,6.789551905566881E-4,1.4025966899901285,2510.00716207548,6.789551905566881E-4,0.9995161640602198,0.7126197512217791
32,3625.70260515335,6.714403351012553E-4,1.4024533374142627,2584.0200833521294,6.714403351012553E-4,0.9995214678368247,0.712695463661978
33,3721.7963109649736,6.412031343174533E-4,1.4020432565108945,2653.33823681653,6.412031343174533E-4,0.9995428742865807,0.7129148663712271
34,3808.631526137488,6.29540589786259E-4,1.4014758946485761,2716.365995321891,6.29540589786259E-4,0.9995510033882158,0.7132138738314033
35,3895.8825564915255,6.058306937818176E-4,1.4017536571561566,2778.091202894482,6.058306937818176E-4,0.9995679918743869,0.7130920631701334
36,3977.079106379814,5.856506785291432E-4,1.4018505316795324,2835.836066132248,5.856506785291432E-4,0.9995824047568821,0.7130432248755993
37,4067.0434988362986,5.806245231204556E-4,1.4023033393116002,2899.059083774268,5.806245231204556E-4,0.9995861207782764,0.7128196279871419
38,4153.621213600495,5.631889644909859E-4,1.4014290195773105,2962.656417271132,5.631889644909859E-4,0.9995982937985962,0.7132734944377678
39,4241.936525160598,5.451751598231781E-4,1.4008024531269334,3027.0408566264573,5.451751598231781E-4,0.9996109636546859,0.71359958468455
40,4337.415230691549,5.319115916336524E-4,1.4016117393059273,3093.4171601568924,5.319115916336524E-4,0.9996206440108378,0.7131961005856052
41,4433.053805129071,5.186688100456793E-4,1.4014999863831328,3161.907859577132,5.186688100456793E-4,0.9996300556999549,0.713257284308804
42,4531.418467006024,5.071230673686222E-4,1.4015674967236444,3231.9381600969687,5.071230673686222E-4,0.9996383052226961,0.7132265623176571
43,4631.097077922747,4.956354083170036E-4,1.401293915207052,3303.7035237491605,4.956354083170036E-4,0.9996464266636177,0.7133746946773144
44,4726.070161831642,4.901663834829313E-4,1.4009437351876133,3372.310429006618,4.901663834829313E-4,0.9996502393848662,0.7135546177338166
45,4818.894714116089,4.7623380190712773E-4,1.4002872194091855,3440.191634832644,4.7623380190712773E-4,0.9996600183986701,0.713896343761046
46,4910.233930892321,4.7005045973368375E-4,1.3998514824738657,3506.5046244098253,4.7005045973368375E-4,0.999664326764476,0.714121947369578
47,5003.316397459224,4.446261991286542E-4,1.3998799558363202,3572.969054207867,4.446261991286542E-4,0.9996824834721659,0.7141141652178906
48,5099.110947874993,4.508749351726768E-4,1.4000837751814168,3640.831697702381,4.508749351726768E-4,0.9996780694178933,0.7140125898355391
49,5195.504519443204,4.347003412398046E-4,1.400024713773814,3709.8572561820565,4.347003412398046E-4,0.9996896016143999,0.7140481540240157
50,5294.708941200615,4.2772599086357224E-4,1.3999325829083384,3780.961876420712,4.2772599086357224E-4,0.9996945600441933,0.7141026627411967
51,5393.96462555732,4.2084057899892705E-4,1.3999085278130041,3851.9256592834327,4.2084057899892705E-4,0.9996994702899917,0.7141179140637564
52,5495.052070839578,4.116275152014482E-4,1.4002084636887142,3923.299476674118,4.116275152014482E-4,0.9997061105164873,0.7139684463666407
53,5599.136897184359,3.9315054916481685E-4,1.4001070490843455,3997.955086796538,3.9315054916481685E-4,0.9997192784768844,0.7140305508204403
54,5702.932950947796,3.986346847009073E-4,1.400140472869655,4071.955520689708,3.986346847009073E-4,0.9997153705437065,0.7140103299775996
55,5812.625648362202,3.9565666301632325E-4,1.400534725474709,4149.118130690068,3.9565666301632325E-4,0.999717575785306,0.7138150165097034
56,5921.544954643155,3.841144408891944E-4,1.4000725444138822,4228.295761387946,3.841144408891944E-4,0.9997257220075605,0.7140548450425918
57,6034.9030904533065,3.7703508508909333E-4,1.4003938496945307,4308.272791808322,3.7703508508909333E-4,0.9997308374344542,0.7138985947908741
58,6146.351219353016,3.6976831486003364E-4,1.4004337048643625,4387.73270985932,3.6976831486003364E-4,0.9997360312692395,0.7138729028757307
59,6257.602894980494,3.643003185089002E-4,1.40027478955971,4467.676891357196,3.643003185089002E-4,0.9997399042186231,0.713959088155913
60,6371.445123530099,3.5529930572248785E-4,1.400449192986356,4548.4185399097105,3.5529930572248785E-4,0.9997463605323387,0.71387866857891
61,6479.453765094854,3.51760837335745E-4,1.400273252913557,4626.1159849935775,3.51760837335745E-4,0.999748854380093,0.7139663980194841
62,6591.198408035146,3.3996066062958385E-4,1.4005267562300325,4705.086021791458,3.3996066062958385E-4,0.9997573211951354,0.7138442248673978
63,6700.3768493389225,3.4342097036949536E-4,1.4002116911403903,4784.086532118586,3.4342097036949536E-4,0.999754796532175,0.7140013558217103
64,6811.8856742320495,3.4001023085062347E-4,1.4005340802004667,4862.596660728251,3.4001023085062347E-4,0.9997572870872743,0.7138406906488368
65,6923.932301289495,3.298600055464613E-4,1.4005057952321684,4942.715639340675,3.298600055464613E-4,0.9997645262637961,0.7138574823113836
66,7031.876522384153,3.259648191584471E-4,1.400052834643252,5021.4102963309715,3.259648191584471E-4,0.9997672309668758,0.7140922220180387
67,7143.21083469341,3.2086244190605596E-4,1.3998896581423654,5101.526327421632,3.2086244190605596E-4,0.9997708469996553,0.7141774214271932
68,7255.776320637422,3.1588335383291944E-4,1.3995458669005343,5183.2092128519,3.1588335383291944E-4,0.9997743467497591,0.7143581789638696
69,7366.964751071779,3.0641501989592474E-4,1.399484849520392,5262.902361011089,3.0641501989592474E-4,0.9997810994912898,0.7143888786340292
70,7474.920876058152,3.0687965291391984E-4,1.3992511881789207,5340.915141619054,3.0687965291391984E-4,0.999780731032197,0.71451050175137
71,7583.689004912278,3.0460658480339415E-4,1.399424864449545,5417.967658642074,3.0460658480339415E-4,0.9997823818165532,0.7144225749712877
72,7689.583613969003,2.961808627365729E-4,1.3991234006597693,5494.837799541921,2.961808627365729E-4,0.9997883544959302,0.7145817963846448
73,7796.129863892772,2.9717119026682E-4,1.3992986881366842,5570.272169597471,2.9717119026682E-4,0.9997876735714196,0.7144913671655447
74,7905.5428327928275,2.945571258003763E-4,1.3995316355388614,5647.5174376785335,2.945571258003763E-4,0.9997895759292519,0.7143757758066195
75,8014.778133678451,2.808180386128192E-4,1.3994558017849623,5725.918733689089,2.808180386128192E-4,0.999799377943939,0.7144196520394199
76,8125.659830872893,2.866703356189251E-4,1.3995424889050974,5804.751084968359,2.866703356189251E-4,0.9997952104842748,0.7143734825459864
77,8234.368832231663,2.8163736927291043E-4,1.3995743665400358,5882.297042864372,2.8163736927291043E-4,0.9997988097572276,0.7143593709848491
78,8343.976979426285,2.742511838491604E-4,1.3995444786147853,5960.755347677465,2.742511838491604E-4,0.9998040809299011,0.7143771320356022
79,8454.528730481445,2.721328441524606E-4,1.3996185425442287,6039.420705574632,2.721328441524606E-4,0.99980560421686,0.7143397434892615
80,8561.41035142291,2.732769788319317E-4,1.3993415506333513,6116.976029776084,2.732769788319317E-4,0.999804748439756,0.7144826614762415
81,8671.983785616052,2.685101501273981E-4,1.3995706311318543,6194.985930793586,2.685101501273981E-4,0.999808184996255,0.7143668984864445
82,8779.470000413416,2.6456251037960374E-4,1.399314887556676,6272.934344665306,2.6456251037960374E-4,0.999810969995046,0.7145043250688276
83,8887.480053495781,2.616375908846503E-4,1.3992574381501623,6350.381504296289,2.616375908846503E-4,0.9998130517865602,0.7145340077636516
84,8998.573163921019,2.5355372801042257E-4,1.399293979435273,6429.630255988716,2.5355372801042257E-4,0.9998188316423685,0.7145168465190795
85,9116.550774679938,2.4979568346333305E-4,1.3995459690077894,6512.772080497571,2.4979568346333305E-4,0.9998215484788823,0.7143898484689646
86,9230.16469168241,2.539766940223649E-4,1.3992758743578504,6595.189580804662,2.539766940223649E-4,0.9998185271333573,0.7145256570928749
87,9343.39006329101,2.475760633779599E-4,1.3992373175774144,6676.306479438991,2.475760633779599E-4,0.999823094865473,0.7145487093082846
88,9455.052863184072,2.4764481511782387E-4,1.3992154043609266,6756.20043612504,2.4764481511782387E-4,0.999823042976902,0.7145598285446446
89,9569.211658967297,2.3827168130863434E-4,1.3993815741762554,6837.007696975121,2.3827168130863434E-4,0.9998297597151014,0.7144786540165112
90,9681.441075038652,2.4373599181044296E-4,1.3994051043541127,6917.0500456713735,2.4373599181044296E-4,0.9998258591835434,0.7144674476439626
91,9793.281948242986,2.4066337983408423E-4,1.3992884188750505,6997.555157956636,2.4066337983408423E-4,0.9998280397435927,0.7145276189919925
92,9909.774408990974,2.3391628641438155E-4,1.39955554689523,7079.474927941379,2.3391628641438155E-4,0.9998328918079704,0.714394961842287
93,10026.39740156087,2.3467791205868555E-4,1.3994990357567307,7163.074878921831,2.3467791205868555E-4,0.9998323410304639,0.7144216212664775
94,10143.739412233028,2.273014842615513E-4,1.3995464698403797,7246.699159560442,2.273014842615513E-4,0.9998376155569436,0.7144001583041115
95,10260.145296131763,2.2809516188421498E-4,1.399540616924349,7329.886150148271,2.2809516188421498E-4,0.9998370479637709,0.714404248880768
96,10372.279159238,2.2331617158739245E-4,1.399381133844317,7410.864661883674,2.2331617158739245E-4,0.999840443368421,0.7144873261423148
97,10484.559211729478,2.236933903860373E-4,1.399239826747633,7491.841738536679,2.236933903860373E-4,0.9998401577553347,0.7145602242442763
98,10595.725694252933,2.2136001414762264E-4,1.3990740147723033,7572.186605612103,2.2136001414762264E-4,0.9998418060845935,0.7146461810387578
99,10707.01813242395,2.195363377167105E-4,1.3990332098364013,7651.954346131835,2.195363377167105E-4,0.9998431045868468,0.7146671187069314
100,10818.225896243472,2.1004720443820073E-4,1.3989964769760648,7731.686287397471,2.1004720443820073E-4,0.9998498811999457,0.7146874263606948
101,10928.65024851244,2.1163903765720178E-4,1.398950148994841,7810.855286349916,2.1163903765720178E-4,0.9998487386952192,0.7147124418538441
102,11039.424587005968,2.1116329130678498E-4,1.3989555823467503,7889.999259503339,2.1116329130678498E-4,0.9998490792523729,0.7147112945510319
103,11150.519240145293,2.1224453720306884E-4,1.3988876325438513,7969.780730314014,2.1224453720306884E-4,0.999848299223894,0.7147447666403065
104,11262.832617794902,2.0659072555984713E-4,1.3990791633485413,8048.986838465636,2.0659072555984713E-4,0.9998523598736295,0.7146505586333239
105,11372.468203101633,1.9746507097729638E-4,1.3988438569981638,8128.757902791666,1.9746507097729638E-4,0.9998588568701564,0.7147743819165112
106,11482.173199008423,2.0360475510435754E-4,1.398779362707753,8207.514648896733,2.0360475510435754E-4,0.9998544623059468,0.7148044023825387
107,11591.85434793417,2.040946583132088E-4,1.3987892117003196,8285.854046082613,2.040946583132088E-4,0.9998541131988369,0.7147999693043534
108,11705.901740446316,1.961297424045917E-4,1.399081281940662,8365.67620023704,1.961297424045917E-4,0.9998598349828511,0.7146539249771843
109,11820.575455118973,1.9962329201639127E-4,1.3991167347456348,8447.393176833653,1.9962329201639127E-4,0.9998573422722676,0.7146375454306054
110,11935.59650604121,1.9821920819835116E-4,1.3992352374927148,8528.877488879478,1.9821920819835116E-4,0.9998583575322934,0.7145763291127657
111,12047.661799640124,1.943522846933335E-4,1.3992275450217286,8609.027644078751,1.943522846933335E-4,0.9998611195915489,0.7145861808434218
112,12157.708708638975,1.9378028424783477E-4,1.3991699677218736,8688.026058958469,1.9378028424783477E-4,0.9998615225780116,0.7146119668790465
113,12271.66664849748,1.924279710777787E-4,1.3992560193367867,8768.930839935285,1.924279710777787E-4,0.999862497277804,0.7145679267012363
114,12388.20777376586,1.8600127920364077E-4,1.399359031837115,8851.596397853284,1.8600127920364077E-4,0.9998670987536646,0.714517045007362
115,12501.568556182094,1.89752398182689E-4,1.399204090152857,8933.559785708523,1.89752398182689E-4,0.9998644038637209,0.7145955265596838
116,12613.78296236752,1.8236919263034482E-4,1.399008673238268,9015.054113305958,1.8236919263034482E-4,0.9998696609775936,0.7146978151444052
117,12725.021590812237,1.8676665898355752E-4,1.39892778499853,9095.053421992548,1.8676665898355752E-4,0.9998665108166002,0.7147385161867233
118,12835.336879380015,1.8341180542833985E-4,1.3987425262513185,9175.136817614253,1.8341180542833985E-4,0.9998688909824038,0.714834465286444
119,12950.86903617496,1.8223395346572463E-4,1.3989509987016489,9256.351528151674,1.8223395346572463E-4,0.9998697522514565,0.714727273124859
120,13066.855932288023,1.8136544037791895E-4,1.3990397160422223,9338.664279159171,1.8136544037791895E-4,0.9998703811407803,0.7146857286333004
121,13181.682925073372,1.7883319710864257E-4,1.3989483348063818,9421.361564927089,1.7883319710864257E-4,0.9998721823139466,0.7147305610401702
122,13298.821441454946,1.737757806844984E-4,1.3990126337535551,9504.681685610318,1.737757806844984E-4,0.9998758022665883,0.7146994016926759
123,13411.07437259871,1.7506139547062853E-4,1.3988446716526635,9586.050901068522,1.7506139547062853E-4,0.9998748685302035,0.7147883293975197
124,13524.610013117706,1.7294429495010955E-4,1.398928423381705,9666.64054912379,1.7294429495010955E-4,0.9998763890173038,0.714744718144546
125,13636.316853365155,1.722566326869471E-4,1.3988923084914147,9746.738780533384,1.722566326869471E-4,0.9998768772814487,0.7147643137569714
126,13748.196183172808,1.7121940984030887E-4,1.3988457633987665,9827.040237619214,1.7121940984030887E-4,0.9998776144879267,0.7147869526985215
127,13858.603246771954,1.7026490831397383E-4,1.3987000825983071,9906.996221253707,1.7026490831397383E-4,0.9998782839963565,0.714862904620285
128,13971.5502595136,1.7075848100674406E-4,1.398668771707449,9987.957845051256,1.7075848100674406E-4,0.9998779284704774,0.7148777542250099
129,14081.654951818775,1.6483128998726884E-4,1.3985925598585163,10067.260441967344,1.6483128998726884E-4,0.9998821587710418,0.714918641431157
130,14190.611520524099,1.6798496455035507E-4,1.3985794752089782,10145.227730217728,1.6798496455035507E-4,0.999879903292529,0.7149249256890963
131,14301.109744439915,1.639203594501732E-4,1.3986086162545566,10224.042415830134,1.639203594501732E-4,0.9998828112826357,0.714912698649032
132,14412.470794623017,1.663983986065788E-4,1.3986426113894719,10303.387162773943,1.663983986065788E-4,0.9998810428032403,0.714894170570499
133,14523.773486136433,1.6158071208831093E-4,1.3986730734234702,10382.766428611056,1.6158071208831093E-4,0.9998844890555073,0.7148808287967825
134,14636.141270294173,1.6188584105465624E-4,1.3987377493330577,10462.609970208836,1.6188584105465624E-4,0.9998842763004692,0.7148494785586361
135,14751.948996233115,1.6080506883859918E-4,1.3990054527408207,10543.385329579574,1.6080506883859918E-4,0.9998850707927375,0.7147114275726193
136,14862.824992794383,1.59320414403725E-4,1.3988948930149736,10623.48038419645,1.59320414403725E-4,0.9998861227728887,0.7147695299422765
137,14977.398910365793,1.5763909561245773E-4,1.3990370314273741,10704.299570243209,1.5763909561245773E-4,0.9998873358375833,0.7146968905803062
138,15093.986738395382,1.5904759922457924E-4,1.399147039610116,10786.765580715488,1.5904759922457924E-4,0.9998863382353022,0.7146411394041517
139,15207.3436385945,1.539989635644555E-4,1.3991885293644075,10867.491933347623,1.539989635644555E-4,0.9998899490578991,0.714621577875729
140,15322.629794837112,1.5675210660457122E-4,1.399296202421023,10949.013859497067,1.5675210660457122E-4,0.9998879904421957,0.7145648333162169
141,15435.886034536654,1.5518852283360294E-4,1.3992903135311183,11030.00153409444,1.5518852283360294E-4,0.9998891071337856,0.7145690405396775
142,15551.897425580948,1.4816776064762629E-4,1.3994504810210993,11111.683652394056,1.4816776064762629E-4,0.9998941355360863,0.7144883043484378
